[2023-11-08 13:44:16.625] 72
[2023-11-08 13:44:16.651] 368
[2023-11-08 13:44:16.651] 699
[2023-11-08 13:44:16.651] 373
[2023-11-08 13:44:16.651] 711
[2023-11-08 13:44:16.651] 379
[2023-11-08 13:44:16.651] 723
[2023-11-08 13:44:16.651] 382
[2023-11-08 13:44:16.651] 731
[2023-11-08 13:44:16.651] 388
[2023-11-08 13:44:16.651] 742
[2023-11-08 13:44:16.651] 393
[2023-11-08 13:44:16.651] 733
[2023-11-08 13:44:16.651] 397
[2023-11-08 13:44:16.651] 730
[2023-11-08 13:44:16.651] 399
[2023-11-08 13:44:16.651] 721
[2023-11-08 13:44:16.651] 405
[2023-11-08 13:44:16.651] 714
[2023-11-08 13:44:16.651] 411
[2023-11-08 13:44:16.651] 705
[2023-11-08 13:44:16.651] 409
[2023-11-08 13:44:16.651] 692
[2023-11-08 13:44:16.651] 412
[2023-11-08 13:44:16.651] 672
[2023-11-08 13:44:16.651] 416
[2023-11-08 13:44:16.651] 634
[2023-11-08 13:44:16.651] 420
[2023-11-08 13:44:16.651] 599
[2023-11-08 13:44:16.651] 422
[2023-11-08 13:44:16.651] 562
[2023-11-08 13:44:16.651] 425
[2023-11-08 13:44:16.651] 521
[2023-11-08 13:44:16.651] 428
[2023-11-08 13:44:16.651] 477
[2023-11-08 13:44:16.651] 430
[2023-11-08 13:44:16.651] 421
[2023-11-08 13:44:16.651] 433
[2023-11-08 13:44:16.651] 366
[2023-11-08 13:44:16.651] 435
[2023-11-08 13:44:16.651] 308
[2023-11-08 13:44:16.651] 437
[2023-11-08 13:44:16.651] 303
[2023-11-08 13:44:16.651] 439
[2023-11-08 13:44:16.651] 317
[2023-11-08 13:44:16.651] 440
[2023-11-08 13:44:16.651] 319
[2023-11-08 13:44:16.651] 446
[2023-11-08 13:44:16.651] 327
[2023-11-08 13:44:16.651] 479
[2023-11-08 13:44:16.651] 336
[2023-11-08 13:44:16.651] 505
[2023-11-08 13:44:16.651] 342
[2023-11-08 13:44:16.651] 534
[2023-11-08 13:44:16.651] 351
[2023-11-08 13:44:16.651] 564
[2023-11-08 13:44:16.651] 354
[2023-11-08 13:44:16.651] 598
[2023-11-08 13:44:16.651] 359
[2023-11-08 13:44:16.651] 634
[2023-11-08 13:44:16.651] 369
[2023-11-08 13:44:16.651] 663
[2023-11-08 13:44:16.651] 369
[2023-11-08 13:44:16.651] 695
[2023-11-08 13:44:16.651] 376
[2023-11-08 13:44:16.651] 710
[2023-11-08 13:44:16.651] 379
[2023-11-08 13:44:16.651] 723
[2023-11-08 13:44:16.651] 382
[2023-11-08 13:44:16.651] 724
[2023-11-08 13:44:16.651] 386
[2023-11-08 13:44:16.651] 730
[2023-11-08 13:44:16.651] 391
[2023-11-08 13:44:16.651] 736
[2023-11-08 13:44:16.651] 394
[2023-11-08 13:44:16.651] 737
[2023-11-08 13:44:16.651] 398
[2023-11-08 13:44:16.651] 724
[2023-11-08 13:44:16.651] 401
[2023-11-08 13:44:16.651] 713
[2023-11-08 13:44:16.651] 408
[2023-11-08 13:44:16.651] 711
[2023-11-08 13:44:16.651] 410
[2023-11-08 13:44:16.651] 691
[2023-11-08 13:44:16.651] 412
[2023-11-08 13:44:16.651] 676
[2023-11-08 13:44:16.651] 417
[2023-11-08 13:44:16.651] 642
[2023-11-08 13:44:16.651] 421
[2023-11-08 13:44:16.651] 603
[2023-11-08 13:44:16.651] 422
[2023-11-08 13:44:16.651] 570
[2023-11-08 13:44:16.651] 424
[2023-11-08 13:44:16.651] 524
[2023-11-08 13:44:16.651] 428
[2023-11-08 13:44:16.651] 485
[2023-11-08 13:44:16.651] 427
[2023-11-08 13:44:16.651] 450
[2023-11-08 13:44:16.651] 433
[2023-11-08 13:44:16.651] 389
[2023-11-08 13:44:16.651] 435
[2023-11-08 13:44:16.651] 331
[2023-11-08 13:44:16.651] 437
[2023-11-08 13:44:16.651] 308
[2023-11-08 13:44:16.651] 438
[2023-11-08 13:44:16.651] 310
[2023-11-08 13:44:16.651] 440
[2023-11-08 13:44:16.651] 320
[2023-11-08 13:44:16.651] 443
[2023-11-08 13:44:16.651] 328
[2023-11-08 13:44:16.651] 461
[2023-11-08 13:44:16.651] 336
[2023-11-08 13:44:16.651] 503
[2023-11-08 13:44:16.651] 340
[2023-11-08 13:44:16.651] 531
[2023-11-08 13:44:16.651] 342
[2023-11-08 13:44:16.651] 550
[2023-11-08 13:44:16.651] 352
[2023-11-08 13:44:16.651] 577
[2023-11-08 13:44:16.651] 358
[2023-11-08 13:44:16.651] 622
[2023-11-08 13:44:16.651] 363
[2023-11-08 13:44:16.651] 654
[2023-11-08 13:44:16.651] 369
[2023-11-08 13:44:16.651] 684
[2023-11-08 13:44:16.651] 371
[2023-11-08 13:44:16.651] 712
[2023-11-08 13:44:16.651] 373
[2023-11-08 13:44:16.651] 717
[2023-11-08 13:44:16.651] 380
[2023-11-08 13:44:16.651] 722
[2023-11-08 13:44:16.651] 384
[2023-11-08 13:44:16.651] 736
[2023-11-08 13:44:16.651] 389
[2023-11-08 13:44:16.651] 736
[2023-11-08 13:44:16.651] 395
[2023-11-08 13:44:16.651] 735
[2023-11-08 13:44:16.651] 397
[2023-11-08 13:44:16.651] 722
[2023-11-08 13:44:16.651] 403
[2023-11-08 13:44:16.651] 710
[2023-11-08 13:44:16.651] 406
[2023-11-08 13:44:16.651] 708
[2023-11-08 13:44:16.651] 407
[2023-11-08 13:44:16.651] 700
[2023-11-08 13:44:16.651] 412
[2023-11-08 13:44:16.651] 689
[2023-11-08 13:44:16.651] 415
[2023-11-08 13:44:16.651] 655
[2023-11-08 13:44:16.651] 419
[2023-11-08 13:44:16.651] 630
[2023-11-08 13:44:16.651] 421
[2023-11-08 13:44:16.651] 588
[2023-11-08 13:44:16.651] 421
[2023-11-08 13:44:16.651] 558
[2023-11-08 13:44:16.651] 425
[2023-11-08 13:44:16.651] 516
[2023-11-08 13:44:16.651] 428
[2023-11-08 13:44:16.651] 473
[2023-11-08 13:44:16.651] 431
[2023-11-08 13:44:16.651] 421
[2023-11-08 13:44:16.651] 432
[2023-11-08 13:44:16.651] 365
[2023-11-08 13:44:16.651] 435
[2023-11-08 13:44:16.651] 320
[2023-11-08 13:44:16.651] 438
[2023-11-08 13:44:16.651] 303
[2023-11-08 13:44:16.651] 439
[2023-11-08 13:44:16.651] 313
[2023-11-08 13:44:16.651] 441
[2023-11-08 13:44:16.651] 318
[2023-11-08 13:44:16.651] 444
[2023-11-08 13:44:16.651] 325
[2023-11-08 13:44:16.651] 469
[2023-11-08 13:44:16.651] 335
[2023-11-08 13:44:16.651] 499
[2023-11-08 13:44:16.651] 337
[2023-11-08 13:44:16.651] 524
[2023-11-08 13:44:16.651] 343
[2023-11-08 13:44:16.651] 559
[2023-11-08 13:44:16.651] 352
[2023-11-08 13:44:16.651] 595
[2023-11-08 13:44:16.651] 353
[2023-11-08 13:44:16.651] 624
[2023-11-08 13:44:16.651] 360
[2023-11-08 13:44:16.651] 663
[2023-11-08 13:44:16.651] 363
[2023-11-08 13:44:16.651] 685
[2023-11-08 13:44:16.651] 372
[2023-11-08 13:44:16.651] 705
[2023-11-08 13:44:16.651] 375
[2023-11-08 13:44:16.652] 715
[2023-11-08 13:44:16.652] 378
[2023-11-08 13:44:16.652] 730
[2023-11-08 13:44:16.652] 383
[2023-11-08 13:44:16.652] 738
[2023-11-08 13:44:16.652] 390
[2023-11-08 13:44:16.652] 736
[2023-11-08 13:44:16.652] 391
[2023-11-08 13:44:16.652] 738
[2023-11-08 13:44:16.652] 397
[2023-11-08 13:44:16.652] 731
[2023-11-08 13:44:16.652] 401
[2023-11-08 13:44:16.652] 720
[2023-11-08 13:44:16.660] 404
[2023-11-08 13:44:16.660] 705
[2023-11-08 13:44:16.661] 408
[2023-11-08 13:44:16.661] 693
[2023-11-08 13:44:16.661] 411
[2023-11-08 13:44:16.661] 683
[2023-11-08 13:44:16.661] 415
[2023-11-08 13:44:16.661] 658
[2023-11-08 13:44:16.661] 416
[2023-11-08 13:44:16.661] 623
[2023-11-08 13:44:16.661] 421
[2023-11-08 13:44:16.661] 586
[2023-11-08 13:44:16.661] 422
[2023-11-08 13:44:16.661] 555
[2023-11-08 13:44:16.661] 427
[2023-11-08 13:44:16.661] 510
[2023-11-08 13:44:16.661] 428
[2023-11-08 13:44:16.661] 461
[2023-11-08 13:44:16.661] 430
[2023-11-08 13:44:16.661] 415
[2023-11-08 13:44:16.661] 433
[2023-11-08 13:44:16.661] 357
[2023-11-08 13:44:16.661] 436
[2023-11-08 13:44:16.661] 307
[2023-11-08 13:44:16.661] 438
[2023-11-08 13:44:16.661] 304
[2023-11-08 13:44:16.661] 439
[2023-11-08 13:44:16.661] 314
[2023-11-08 13:44:16.661] 440
[2023-11-08 13:44:16.661] 322
[2023-11-08 13:44:16.661] 451
[2023-11-08 13:44:16.661] 325
[2023-11-08 13:44:16.661] 479
[2023-11-08 13:44:16.661] 338
[2023-11-08 13:44:16.661] 511
[2023-11-08 13:44:16.661] 340
[2023-11-08 13:44:16.661] 538
[2023-11-08 13:44:16.661] 342
[2023-11-08 13:44:16.661] 572
[2023-11-08 13:44:16.661] 354
[2023-11-08 13:44:16.661] 606
[2023-11-08 13:44:16.661] 361
[2023-11-08 13:44:16.661] 640
[2023-11-08 13:44:16.661] 367
[2023-11-08 13:44:16.661] 673
[2023-11-08 13:44:16.661] 370
[2023-11-08 13:44:16.661] 702
[2023-11-08 13:44:16.661] 373
[2023-11-08 13:44:16.661] 718
[2023-11-08 13:44:16.661] 377
[2023-11-08 13:44:16.661] 723
[2023-11-08 13:44:16.661] 379
[2023-11-08 13:44:16.661] 730
[2023-11-08 13:44:16.661] 384
[2023-11-08 13:44:16.661] 742
[2023-11-08 13:44:16.661] 390
[2023-11-08 13:44:16.661] 739
[2023-11-08 13:44:16.661] 395
[2023-11-08 13:44:16.661] 727
[2023-11-08 13:44:16.661] 399
[2023-11-08 13:44:16.661] 724
[2023-11-08 13:44:16.661] 404
[2023-11-08 13:44:16.661] 721
[2023-11-08 13:44:16.661] 406
[2023-11-08 13:44:16.661] 700
[2023-11-08 13:44:16.661] 408
[2023-11-08 13:44:16.661] 691
[2023-11-08 13:44:16.661] 413
[2023-11-08 13:44:16.661] 681
[2023-11-08 13:44:16.661] 415
[2023-11-08 13:44:16.661] 654
[2023-11-08 13:44:16.661] 419
[2023-11-08 13:44:16.661] 608
[2023-11-08 13:44:16.661] 422
[2023-11-08 13:44:16.661] 578
[2023-11-08 13:44:16.661] 424
[2023-11-08 13:44:16.661] 546
[2023-11-08 13:44:16.661] 425
[2023-11-08 13:44:16.661] 502
[2023-11-08 13:44:16.661] 428
[2023-11-08 13:44:16.661] 459
[2023-11-08 13:44:16.661] 431
[2023-11-08 13:44:16.661] 400
[2023-11-08 13:44:16.661] 432
[2023-11-08 13:44:16.661] 346
[2023-11-08 13:44:16.661] 436
[2023-11-08 13:44:16.661] 302
[2023-11-08 13:44:16.661] 437
[2023-11-08 13:44:16.661] 305
[2023-11-08 13:44:16.661] 440
[2023-11-08 13:44:16.661] 312
[2023-11-08 13:44:16.661] 441
[2023-11-08 13:44:16.661] 325
[2023-11-08 13:44:16.661] 450
[2023-11-08 13:44:16.661] 327
[2023-11-08 13:44:16.661] 491
[2023-11-08 13:44:16.661] 333
[2023-11-08 13:44:16.661] 522
[2023-11-08 13:44:16.661] 343
[2023-11-08 13:44:16.661] 550
[2023-11-08 13:44:16.661] 345
[2023-11-08 13:44:16.661] 574
[2023-11-08 13:44:16.661] 352
[2023-11-08 13:44:16.661] 623
[2023-11-08 13:44:16.661] 361
[2023-11-08 13:44:16.661] 650
[2023-11-08 13:44:16.661] 365
[2023-11-08 13:44:16.661] 675
[2023-11-08 13:44:16.661] 371
[2023-11-08 13:44:16.661] 703
[2023-11-08 13:44:16.661] 374
[2023-11-08 13:44:16.661] 717
[2023-11-08 13:44:16.661] 380
[2023-11-08 13:44:16.661] 720
[2023-11-08 13:44:16.661] 384
[2023-11-08 13:44:16.661] 731
[2023-11-08 13:44:16.661] 386
[2023-11-08 13:44:16.661] 735
[2023-11-08 13:44:16.661] 392
[2023-11-08 13:44:16.661] 732
[2023-11-08 13:44:16.661] 398
[2023-11-08 13:44:16.661] 727
[2023-11-08 13:44:16.661] 401
[2023-11-08 13:44:16.672] 720
[2023-11-08 13:44:16.721] 403
[2023-11-08 13:44:16.775] 715
[2023-11-08 13:44:16.824] 406
[2023-11-08 13:44:16.873] 707
[2023-11-08 13:44:16.922] 408
[2023-11-08 13:44:16.975] 686
[2023-11-08 13:44:17.025] 412
[2023-11-08 13:44:17.074] 664
[2023-11-08 13:44:17.123] 415
[2023-11-08 13:44:17.176] 638
[2023-11-08 13:44:17.225] 419
[2023-11-08 13:44:17.275] 601
[2023-11-08 13:44:17.323] 422
[2023-11-08 13:44:17.376] 572
[2023-11-08 13:44:17.426] 426
[2023-11-08 13:44:17.476] 530
[2023-11-08 13:44:17.524] 427
[2023-11-08 13:44:17.577] 486
[2023-11-08 13:44:17.627] 429
[2023-11-08 13:44:17.675] 436
[2023-11-08 13:44:17.725] 431
[2023-11-08 13:44:17.778] 383
[2023-11-08 13:44:17.827] 435
[2023-11-08 13:44:17.876] 319
[2023-11-08 13:44:17.925] 435
[2023-11-08 13:44:17.979] 297
[2023-11-08 13:44:18.028] 438
[2023-11-08 13:44:18.078] 313
[2023-11-08 13:44:18.126] 439
[2023-11-08 13:44:18.179] 318
[2023-11-08 13:44:18.229] 442
[2023-11-08 13:44:18.278] 323
[2023-11-08 13:44:18.327] 466
[2023-11-08 13:44:18.380] 331
[2023-11-08 13:44:18.429] 510
[2023-11-08 13:44:18.479] 318
[2023-11-08 13:44:18.528] 580
[2023-11-08 13:44:18.581] 127
[2023-11-08 13:44:18.631] 655
[2023-11-08 13:44:18.679] 288
[2023-11-08 13:44:18.729] 572
[2023-11-08 13:44:18.782] 358
[2023-11-08 13:44:18.831] 600
[2023-11-08 13:44:18.880] 369
[2023-11-08 13:44:18.929] 641
[2023-11-08 13:44:18.982] 371
[2023-11-08 13:44:19.032] 691
[2023-11-08 13:44:19.081] 356
[2023-11-08 13:44:19.130] 715
[2023-11-08 13:44:19.183] 350
[2023-11-08 13:44:19.232] 743
[2023-11-08 13:44:19.282] 356
[2023-11-08 13:44:19.330] 774
[2023-11-08 13:44:19.384] 326
[2023-11-08 13:44:19.433] 806
[2023-11-08 13:44:19.482] 344
[2023-11-08 13:44:19.532] 767
[2023-11-08 13:44:19.585] 371
[2023-11-08 13:44:19.634] 784
[2023-11-08 13:44:19.682] 374
[2023-11-08 13:44:19.732] 763
[2023-11-08 13:44:19.785] 391
[2023-11-08 13:44:19.834] 752
[2023-11-08 13:44:19.883] 404
[2023-11-08 13:44:19.933] 737
[2023-11-08 13:44:19.986] 405
[2023-11-08 13:44:20.035] 721
[2023-11-08 13:44:20.084] 412
[2023-11-08 13:44:20.133] 702
[2023-11-08 13:44:20.186] 484
[2023-11-08 13:44:20.235] 710
[2023-11-08 13:44:20.285] 482
[2023-11-08 13:44:20.334] 487
[2023-11-08 13:44:20.388] 0
[2023-11-08 13:44:20.437] 517
[2023-11-08 13:44:20.485] 556
[2023-11-08 13:44:20.535] 478
[2023-11-08 13:44:20.588] 515
[2023-11-08 13:44:20.637] 482
[2023-11-08 13:44:20.686] 481
[2023-11-08 13:44:20.735] 494
[2023-11-08 13:44:20.789] 493
[2023-11-08 13:44:20.838] 502
[2023-11-08 13:44:20.887] 504
[2023-11-08 13:44:20.937] 502
[2023-11-08 13:44:20.989] 500
[2023-11-08 13:44:21.039] 501
[2023-11-08 13:44:21.088] 503
[2023-11-08 13:44:21.137] 489
[2023-11-08 13:44:21.190] 489
[2023-11-08 13:44:21.239] 489
[2023-11-08 13:44:21.289] 489
[2023-11-08 13:44:21.337] 489
[2023-11-08 13:44:21.391] 489
[2023-11-08 13:44:21.440] 489
[2023-11-08 13:44:21.489] 489
[2023-11-08 13:44:21.539] 489
[2023-11-08 13:44:21.592] 489
[2023-11-08 13:44:21.641] 489
[2023-11-08 13:44:21.690] 489
[2023-11-08 13:44:21.739] 489
[2023-11-08 13:44:21.794] 505
[2023-11-08 13:44:21.842] 490
[2023-11-08 13:44:21.891] 499
[2023-11-08 13:44:21.940] 439
[2023-11-08 13:44:21.993] 506
[2023-11-08 13:44:22.043] 555
[2023-11-08 13:44:22.092] 394
[2023-11-08 13:44:22.141] 424
[2023-11-08 13:44:22.193] 354
[2023-11-08 13:44:22.243] 488
[2023-11-08 13:44:22.293] 518
[2023-11-08 13:44:22.341] 477
[2023-11-08 13:44:22.394] 419
[2023-11-08 13:44:22.445] 423
[2023-11-08 13:44:22.492] 542
[2023-11-08 13:44:22.543] 482
[2023-11-08 13:44:22.595] 683
[2023-11-08 13:44:22.645] 497
[2023-11-08 13:44:22.694] 501
[2023-11-08 13:44:22.743] 478
[2023-11-08 13:44:22.796] 503
[2023-11-08 13:44:22.845] 447
[2023-11-08 13:44:22.894] 482
[2023-11-08 13:44:22.944] 490
[2023-11-08 13:44:22.997] 522
[2023-11-08 13:44:23.045] 464
[2023-11-08 13:44:23.095] 444
[2023-11-08 13:44:23.144] 485
[2023-11-08 13:44:23.198] 431
[2023-11-08 13:44:23.246] 452
[2023-11-08 13:44:23.296] 527
[2023-11-08 13:44:23.345] 445
[2023-11-08 13:44:23.397] 413
[2023-11-08 13:44:23.447] 504
[2023-11-08 13:44:23.496] 491
[2023-11-08 13:44:23.545] 540
[2023-11-08 13:44:23.600] 463
[2023-11-08 13:44:23.648] 481
[2023-11-08 13:44:23.696] 415
[2023-11-08 13:44:23.747] 495
[2023-11-08 13:44:23.801] 510
[2023-11-08 13:44:23.848] 508
[2023-11-08 13:44:23.897] 441
[2023-11-08 13:44:23.947] 403
[2023-11-08 13:44:24.000] 464
[2023-11-08 13:44:24.051] 559
[2023-11-08 13:44:24.098] 503
[2023-11-08 13:44:24.147] 560
[2023-11-08 13:44:24.201] 494
[2023-11-08 13:44:24.250] 594
[2023-11-08 13:44:24.300] 426
[2023-11-08 13:44:24.348] 526
[2023-11-08 13:44:24.401] 530
[2023-11-08 13:44:24.451] 470
[2023-11-08 13:44:24.500] 447
[2023-11-08 13:44:24.548] 496
[2023-11-08 13:44:24.602] 461
[2023-11-08 13:44:24.651] 438
[2023-11-08 13:44:24.700] 470
[2023-11-08 13:44:24.750] 426
[2023-11-08 13:44:24.803] 506
[2023-11-08 13:44:24.852] 471
[2023-11-08 13:44:24.901] 423
[2023-11-08 13:44:24.950] 427
[2023-11-08 13:44:25.003] 436
[2023-11-08 13:44:25.052] 498
[2023-11-08 13:44:25.103] 467
[2023-11-08 13:44:25.151] 492
[2023-11-08 13:44:25.204] 487
[2023-11-08 13:44:25.255] 503
[2023-11-08 13:44:25.302] 484
[2023-11-08 13:44:25.352] 503
[2023-11-08 13:44:25.405] 417
[2023-11-08 13:44:25.454] 976
[2023-11-08 13:44:25.503] 449
[2023-11-08 13:44:25.552] 349
[2023-11-08 13:44:25.606] 516
[2023-11-08 13:44:25.655] 514
[2023-11-08 13:44:25.705] 520
[2023-11-08 13:44:25.754] 471
[2023-11-08 13:44:25.807] 468
[2023-11-08 13:44:25.856] 505
[2023-11-08 13:44:25.905] 485
[2023-11-08 13:44:25.954] 506
[2023-11-08 13:44:26.007] 438
[2023-11-08 13:44:26.056] 492
[2023-11-08 13:44:26.105] 514
[2023-11-08 13:44:26.155] 515
[2023-11-08 13:44:26.208] 416
[2023-11-08 13:44:26.257] 976
[2023-11-08 13:44:26.307] 466
[2023-11-08 13:44:26.355] 784
[2023-11-08 13:44:26.409] 426
[2023-11-08 13:44:26.457] 384
[2023-11-08 13:44:26.507] 460
[2023-11-08 13:44:26.556] 558
[2023-11-08 13:44:26.609] 469
[2023-11-08 13:44:26.658] 513
[2023-11-08 13:44:26.707] 472
[2023-11-08 13:44:26.756] 493
[2023-11-08 13:44:26.810] 473
[2023-11-08 13:44:26.860] 457
[2023-11-08 13:44:26.908] 473
[2023-11-08 13:44:26.957] 454
[2023-11-08 13:44:27.011] 471
[2023-11-08 13:44:27.061] 429
[2023-11-08 13:44:27.109] 472
[2023-11-08 13:44:27.158] 465
[2023-11-08 13:44:27.211] 487
[2023-11-08 13:44:27.261] 489
[2023-11-08 13:44:27.311] 319
[2023-11-08 13:44:27.359] 479
[2023-11-08 13:44:27.412] 483
[2023-11-08 13:44:27.461] 489
[2023-11-08 13:44:27.510] 489
[2023-11-08 13:44:27.560] 479
[2023-11-08 13:44:27.613] 484
[2023-11-08 13:44:27.662] 488
[2023-11-08 13:44:27.711] 489
[2023-11-08 13:44:27.762] 449
[2023-11-08 13:44:27.813] 485
[2023-11-08 13:44:27.863] 486
[2023-11-08 13:44:27.912] 489
[2023-11-08 13:44:27.961] 452
[2023-11-08 13:44:28.014] 486
[2023-11-08 13:44:28.063] 487
[2023-11-08 13:44:30.513] 489
[2023-11-08 13:44:30.517] 454
[2023-11-08 13:44:30.517] 487
[2023-11-08 13:44:30.517] 486
[2023-11-08 13:44:30.517] 489
[2023-11-08 13:44:30.517] 112
[2023-11-08 13:44:30.517] 487
[2023-11-08 13:44:30.517] 480
[2023-11-08 13:44:30.517] 489
[2023-11-08 13:44:30.517] 489
[2023-11-08 13:44:30.517] 496
[2023-11-08 13:44:30.517] 480
[2023-11-08 13:44:30.517] 487
[2023-11-08 13:44:30.517] 489
[2023-11-08 13:44:30.517] 396
[2023-11-08 13:44:30.517] 481
[2023-11-08 13:44:30.517] 485
[2023-11-08 13:44:30.517] 489
[2023-11-08 13:44:30.517] 979
[2023-11-08 13:44:30.517] 482
[2023-11-08 13:44:30.517] 521
[2023-11-08 13:44:30.517] 488
[2023-11-08 13:44:30.517] 489
[2023-11-08 13:44:30.517] 465
[2023-11-08 13:44:30.517] 512
[2023-11-08 13:44:30.517] 487
[2023-11-08 13:44:30.517] 489
[2023-11-08 13:44:30.517] 213
[2023-11-08 13:44:30.517] 494
[2023-11-08 13:44:30.517] 482
[2023-11-08 13:44:30.517] 489
[2023-11-08 13:44:30.517] 489
[2023-11-08 13:44:30.517] 478
[2023-11-08 13:44:30.517] 484
[2023-11-08 13:44:30.517] 488
[2023-11-08 13:44:30.517] 489
[2023-11-08 13:44:30.517] 477
[2023-11-08 13:44:30.517] 484
[2023-11-08 13:44:30.517] 488
[2023-11-08 13:44:30.517] 489
[2023-11-08 13:44:30.517] 477
[2023-11-08 13:44:30.517] 484
[2023-11-08 13:44:30.517] 488
[2023-11-08 13:44:30.517] 489
[2023-11-08 13:44:30.517] 476
[2023-11-08 13:44:30.517] 485
[2023-11-08 13:44:30.517] 488
[2023-11-08 13:44:30.517] 489
[2023-11-08 13:44:30.521] 479
[2023-11-08 13:44:30.570] 485
[2023-11-08 13:44:30.623] 488
[2023-11-08 13:44:30.673] 489
[2023-11-08 13:44:30.721] 477
[2023-11-08 13:44:30.770] 484
[2023-11-08 13:44:30.824] 488
[2023-11-08 13:44:30.874] 489
[2023-11-08 13:44:30.923] 442
[2023-11-08 13:44:30.973] 486
[2023-11-08 13:44:31.025] 487
[2023-11-08 13:44:31.074] 489
[2023-11-08 13:44:31.124] 442
[2023-11-08 13:44:31.172] 486
[2023-11-08 13:44:31.225] 486
[2023-11-08 13:44:31.275] 489
[2023-11-08 13:44:31.324] 377
[2023-11-08 13:44:31.373] 485
[2023-11-08 13:44:31.427] 480
[2023-11-08 13:44:31.476] 489
[2023-11-08 13:44:31.524] 489
[2023-11-08 13:44:31.573] 478
[2023-11-08 13:44:31.626] 482
[2023-11-08 13:44:31.676] 488
[2023-11-08 13:44:31.725] 489
[2023-11-08 13:44:31.775] 371
[2023-11-08 13:44:31.827] 482
[2023-11-08 13:44:31.876] 485
[2023-11-08 13:44:31.926] 489
[2023-11-08 13:44:31.975] 496
[2023-11-08 13:44:32.028] 482
[2023-11-08 13:44:32.078] 516
[2023-11-08 13:44:32.127] 488
[2023-11-08 13:44:32.176] 491
[2023-11-08 13:44:32.228] 482
[2023-11-08 13:44:32.278] 521
[2023-11-08 13:44:32.328] 488
[2023-11-08 13:44:32.376] 494
[2023-11-08 13:44:32.431] 483
[2023-11-08 13:44:32.479] 524
[2023-11-08 13:44:32.528] 488
[2023-11-08 13:44:32.577] 489
[2023-11-08 13:44:32.631] 464
[2023-11-08 13:44:32.680] 516
[2023-11-08 13:44:32.728] 487
[2023-11-08 13:44:32.778] 489
[2023-11-08 13:44:32.830] 210
[2023-11-08 13:44:32.881] 499
[2023-11-08 13:44:32.930] 482
[2023-11-08 13:44:32.979] 489
[2023-11-08 13:44:33.032] 489
[2023-11-08 13:44:33.081] 479
[2023-11-08 13:44:33.130] 484
[2023-11-08 13:44:33.181] 488
[2023-11-08 13:44:33.232] 489
[2023-11-08 13:44:33.282] 472
[2023-11-08 13:44:33.332] 484
[2023-11-08 13:44:33.381] 488
[2023-11-08 13:44:35.155] 489
[2023-11-08 13:44:35.157] 474
[2023-11-08 13:44:35.157] 483
[2023-11-08 13:44:35.157] 488
[2023-11-08 13:44:35.157] 489
[2023-11-08 13:44:35.157] 474
[2023-11-08 13:44:35.157] 484
[2023-11-08 13:44:35.157] 488
[2023-11-08 13:44:35.157] 489
[2023-11-08 13:44:35.157] 433
[2023-11-08 13:44:35.157] 484
[2023-11-08 13:44:35.157] 486
[2023-11-08 13:44:35.157] 489
[2023-11-08 13:44:35.157] 768
[2023-11-08 13:44:35.157] 484
[2023-11-08 13:44:35.157] 480
[2023-11-08 13:44:35.157] 488
[2023-11-08 13:44:35.157] 489
[2023-11-08 13:44:35.157] 475
[2023-11-08 13:44:35.157] 479
[2023-11-08 13:44:35.157] 487
[2023-11-08 13:44:35.157] 489
[2023-11-08 13:44:35.157] 348
[2023-11-08 13:44:35.157] 480
[2023-11-08 13:44:35.157] 484
[2023-11-08 13:44:35.157] 489
[2023-11-08 13:44:35.157] 489
[2023-11-08 13:44:35.157] 480
[2023-11-08 13:44:35.157] 485
[2023-11-08 13:44:35.157] 488
[2023-11-08 13:44:35.157] 489
[2023-11-08 13:44:35.157] 454
[2023-11-08 13:44:35.157] 495
[2023-11-08 13:44:35.157] 486
[2023-11-08 13:44:35.157] 489
[2023-11-08 13:44:35.187] 95
[2023-11-08 13:44:35.239] 524
[2023-11-08 13:44:35.290] 479
[2023-11-08 13:44:35.338] 488
[2023-11-08 13:44:35.388] 489
[2023-11-08 13:44:35.440] 512
[2023-11-08 13:44:35.489] 482
[2023-11-08 13:44:35.539] 488
[2023-11-08 13:44:35.588] 489
[2023-11-08 13:44:35.641] 416
[2023-11-08 13:44:35.692] 483
[2023-11-08 13:44:35.739] 486
[2023-11-08 13:44:35.788] 489
[2023-11-08 13:44:35.842] 978
