[2023-11-08 15:00:16.536] 463
[2023-11-08 15:00:16.568] 491
[2023-11-08 15:00:16.568] 458
[2023-11-08 15:00:16.568] 490
[2023-11-08 15:00:16.568] 491
[2023-11-08 15:00:16.568] 480
[2023-11-08 15:00:16.568] 495
[2023-11-08 15:00:16.568] 474
[2023-11-08 15:00:16.568] 514
[2023-11-08 15:00:16.568] 459
[2023-11-08 15:00:16.568] 606
[2023-11-08 15:00:16.568] 446
[2023-11-08 15:00:16.568] 531
[2023-11-08 15:00:16.568] 445
[2023-11-08 15:00:16.568] 531
[2023-11-08 15:00:16.568] 441
[2023-11-08 15:00:16.568] 544
[2023-11-08 15:00:16.568] 432
[2023-11-08 15:00:16.568] 557
[2023-11-08 15:00:16.568] 418
[2023-11-08 15:00:16.568] 543
[2023-11-08 15:00:16.568] 415
[2023-11-08 15:00:16.568] 546
[2023-11-08 15:00:16.568] 406
[2023-11-08 15:00:16.568] 581
[2023-11-08 15:00:16.568] 399
[2023-11-08 15:00:16.568] 560
[2023-11-08 15:00:16.568] 399
[2023-11-08 15:00:16.568] 553
[2023-11-08 15:00:16.568] 385
[2023-11-08 15:00:16.568] 551
[2023-11-08 15:00:16.568] 374
[2023-11-08 15:00:16.568] 552
[2023-11-08 15:00:16.568] 370
[2023-11-08 15:00:16.568] 581
[2023-11-08 15:00:16.568] 387
[2023-11-08 15:00:16.568] 564
[2023-11-08 15:00:16.568] 391
[2023-11-08 15:00:16.568] 549
[2023-11-08 15:00:16.568] 413
[2023-11-08 15:00:16.568] 553
[2023-11-08 15:00:16.568] 424
[2023-11-08 15:00:16.568] 537
[2023-11-08 15:00:16.568] 428
[2023-11-08 15:00:16.568] 529
[2023-11-08 15:00:16.568] 442
[2023-11-08 15:00:16.568] 515
[2023-11-08 15:00:16.568] 461
[2023-11-08 15:00:16.568] 510
[2023-11-08 15:00:16.568] 471
[2023-11-08 15:00:16.568] 510
[2023-11-08 15:00:16.568] 478
[2023-11-08 15:00:16.568] 499
[2023-11-08 15:00:16.568] 486
[2023-11-08 15:00:16.568] 480
[2023-11-08 15:00:16.568] 490
[2023-11-08 15:00:16.568] 468
[2023-11-08 15:00:16.568] 508
[2023-11-08 15:00:16.568] 462
[2023-11-08 15:00:16.568] 518
[2023-11-08 15:00:16.568] 455
[2023-11-08 15:00:16.568] 529
[2023-11-08 15:00:16.568] 437
[2023-11-08 15:00:16.568] 555
[2023-11-08 15:00:16.568] 430
[2023-11-08 15:00:16.568] 547
[2023-11-08 15:00:16.568] 430
[2023-11-08 15:00:16.568] 564
[2023-11-08 15:00:16.568] 439
[2023-11-08 15:00:16.568] 556
[2023-11-08 15:00:16.568] 422
[2023-11-08 15:00:16.568] 542
[2023-11-08 15:00:16.568] 407
[2023-11-08 15:00:16.568] 546
[2023-11-08 15:00:16.568] 391
[2023-11-08 15:00:16.568] 562
[2023-11-08 15:00:16.568] 407
[2023-11-08 15:00:16.568] 556
[2023-11-08 15:00:16.568] 395
[2023-11-08 15:00:16.568] 568
[2023-11-08 15:00:16.568] 380
[2023-11-08 15:00:16.568] 570
[2023-11-08 15:00:16.568] 379
[2023-11-08 15:00:16.568] 559
[2023-11-08 15:00:16.568] 382
[2023-11-08 15:00:16.568] 554
[2023-11-08 15:00:16.568] 386
[2023-11-08 15:00:16.568] 548
[2023-11-08 15:00:16.568] 406
[2023-11-08 15:00:16.568] 546
[2023-11-08 15:00:16.568] 417
[2023-11-08 15:00:16.568] 535
[2023-11-08 15:00:16.568] 433
[2023-11-08 15:00:16.568] 532
[2023-11-08 15:00:16.568] 450
[2023-11-08 15:00:16.568] 528
[2023-11-08 15:00:16.568] 461
[2023-11-08 15:00:16.568] 526
[2023-11-08 15:00:16.568] 475
[2023-11-08 15:00:16.568] 519
[2023-11-08 15:00:16.568] 484
[2023-11-08 15:00:16.568] 517
[2023-11-08 15:00:16.568] 497
[2023-11-08 15:00:16.568] 507
[2023-11-08 15:00:16.568] 508
[2023-11-08 15:00:16.568] 490
[2023-11-08 15:00:16.568] 521
[2023-11-08 15:00:16.568] 498
[2023-11-08 15:00:16.568] 550
[2023-11-08 15:00:16.568] 467
[2023-11-08 15:00:16.568] 544
[2023-11-08 15:00:16.568] 443
[2023-11-08 15:00:16.568] 617
[2023-11-08 15:00:16.568] 428
[2023-11-08 15:00:16.568] 580
[2023-11-08 15:00:16.568] 412
[2023-11-08 15:00:16.568] 554
[2023-11-08 15:00:16.568] 415
[2023-11-08 15:00:16.568] 553
[2023-11-08 15:00:16.568] 408
[2023-11-08 15:00:16.568] 576
[2023-11-08 15:00:16.568] 389
[2023-11-08 15:00:16.568] 563
[2023-11-08 15:00:16.568] 385
[2023-11-08 15:00:16.568] 562
[2023-11-08 15:00:16.568] 377
[2023-11-08 15:00:16.568] 571
[2023-11-08 15:00:16.568] 394
[2023-11-08 15:00:16.568] 547
[2023-11-08 15:00:16.568] 344
[2023-11-08 15:00:16.568] 568
[2023-11-08 15:00:16.568] 334
[2023-11-08 15:00:16.568] 569
[2023-11-08 15:00:16.568] 375
[2023-11-08 15:00:16.568] 525
[2023-11-08 15:00:16.568] 397
[2023-11-08 15:00:16.568] 528
[2023-11-08 15:00:16.568] 435
[2023-11-08 15:00:16.568] 527
[2023-11-08 15:00:16.568] 425
[2023-11-08 15:00:16.568] 534
[2023-11-08 15:00:16.568] 430
[2023-11-08 15:00:16.568] 539
[2023-11-08 15:00:16.568] 447
[2023-11-08 15:00:16.568] 532
[2023-11-08 15:00:16.568] 463
[2023-11-08 15:00:16.568] 527
[2023-11-08 15:00:16.568] 478
[2023-11-08 15:00:16.568] 520
[2023-11-08 15:00:16.568] 499
[2023-11-08 15:00:16.568] 509
[2023-11-08 15:00:16.568] 509
[2023-11-08 15:00:16.568] 509
[2023-11-08 15:00:16.568] 543
[2023-11-08 15:00:16.568] 503
[2023-11-08 15:00:16.568] 540
[2023-11-08 15:00:16.568] 489
[2023-11-08 15:00:16.568] 541
[2023-11-08 15:00:16.568] 461
[2023-11-08 15:00:16.568] 550
[2023-11-08 15:00:16.568] 410
[2023-11-08 15:00:16.568] 583
[2023-11-08 15:00:16.568] 462
[2023-11-08 15:00:16.568] 605
[2023-11-08 15:00:16.568] 415
[2023-11-08 15:00:16.568] 557
[2023-11-08 15:00:16.568] 414
[2023-11-08 15:00:16.568] 530
[2023-11-08 15:00:16.568] 415
[2023-11-08 15:00:16.568] 540
[2023-11-08 15:00:16.568] 425
[2023-11-08 15:00:16.568] 524
[2023-11-08 15:00:16.568] 457
[2023-11-08 15:00:16.568] 507
[2023-11-08 15:00:16.568] 428
[2023-11-08 15:00:16.568] 489
[2023-11-08 15:00:16.568] 442
[2023-11-08 15:00:16.568] 494
[2023-11-08 15:00:16.568] 437
[2023-11-08 15:00:16.568] 497
[2023-11-08 15:00:16.568] 437
[2023-11-08 15:00:16.568] 497
[2023-11-08 15:00:16.568] 447
[2023-11-08 15:00:16.568] 497
[2023-11-08 15:00:16.568] 457
[2023-11-08 15:00:16.568] 495
[2023-11-08 15:00:16.568] 474
[2023-11-08 15:00:16.568] 495
[2023-11-08 15:00:16.568] 486
[2023-11-08 15:00:16.568] 496
[2023-11-08 15:00:16.568] 494
[2023-11-08 15:00:16.568] 494
[2023-11-08 15:00:16.568] 483
[2023-11-08 15:00:16.568] 521
[2023-11-08 15:00:16.568] 451
[2023-11-08 15:00:16.568] 504
[2023-11-08 15:00:16.568] 474
[2023-11-08 15:00:16.568] 481
[2023-11-08 15:00:16.572] 485
[2023-11-08 15:00:16.624] 468
[2023-11-08 15:00:16.672] 560
[2023-11-08 15:00:16.720] 540
[2023-11-08 15:00:16.769] 571
[2023-11-08 15:00:16.825] 526
[2023-11-08 15:00:16.873] 544
[2023-11-08 15:00:16.921] 544
[2023-11-08 15:00:16.970] 565
[2023-11-08 15:00:17.026] 535
[2023-11-08 15:00:17.074] 556
[2023-11-08 15:00:17.122] 511
[2023-11-08 15:00:17.170] 524
[2023-11-08 15:00:17.226] 513
[2023-11-08 15:00:17.274] 467
[2023-11-08 15:00:17.322] 542
[2023-11-08 15:00:17.370] 440
[2023-11-08 15:00:17.426] 464
[2023-11-08 15:00:17.475] 421
[2023-11-08 15:00:17.523] 536
[2023-11-08 15:00:17.572] 460
[2023-11-08 15:00:17.627] 469
[2023-11-08 15:00:17.676] 550
[2023-11-08 15:00:17.724] 553
[2023-11-08 15:00:17.772] 506
[2023-11-08 15:00:17.828] 489
[2023-11-08 15:00:17.877] 433
[2023-11-08 15:00:17.925] 476
[2023-11-08 15:00:17.973] 520
[2023-11-08 15:00:18.030] 550
[2023-11-08 15:00:18.079] 492
[2023-11-08 15:00:18.127] 558
[2023-11-08 15:00:18.176] 481
[2023-11-08 15:00:18.223] 346
[2023-11-08 15:00:18.280] 430
[2023-11-08 15:00:18.328] 461
[2023-11-08 15:00:18.377] 431
[2023-11-08 15:00:18.425] 438
[2023-11-08 15:00:18.474] 365
[2023-11-08 15:00:18.530] 381
[2023-11-08 15:00:18.579] 391
[2023-11-08 15:00:18.628] 515
[2023-11-08 15:00:18.677] 577
[2023-11-08 15:00:18.726] 509
[2023-11-08 15:00:18.775] 286
[2023-11-08 15:00:18.831] 559
[2023-11-08 15:00:18.879] 507
[2023-11-08 15:00:18.927] 536
[2023-11-08 15:00:18.976] 565
[2023-11-08 15:00:19.032] 571
[2023-11-08 15:00:19.080] 561
[2023-11-08 15:00:19.128] 517
[2023-11-08 15:00:19.176] 571
[2023-11-08 15:00:19.232] 568
[2023-11-08 15:00:19.281] 570
[2023-11-08 15:00:19.329] 567
[2023-11-08 15:00:19.378] 563
[2023-11-08 15:00:19.434] 541
[2023-11-08 15:00:19.482] 533
[2023-11-08 15:00:19.530] 549
[2023-11-08 15:00:19.580] 324
[2023-11-08 15:00:19.636] 538
[2023-11-08 15:00:19.685] 497
[2023-11-08 15:00:19.733] 529
[2023-11-08 15:00:19.782] 353
[2023-11-08 15:00:19.830] 391
[2023-11-08 15:00:19.879] 361
[2023-11-08 15:00:19.935] 512
[2023-11-08 15:00:19.984] 392
[2023-11-08 15:00:20.032] 531
[2023-11-08 15:00:20.081] 488
[2023-11-08 15:00:20.129] 430
[2023-11-08 15:00:20.178] 473
[2023-11-08 15:00:20.234] 465
[2023-11-08 15:00:20.282] 542
[2023-11-08 15:00:20.330] 581
[2023-11-08 15:00:20.379] 508
[2023-11-08 15:00:20.436] 364
[2023-11-08 15:00:20.485] 367
[2023-11-08 15:00:20.533] 544
[2023-11-08 15:00:20.582] 500
[2023-11-08 15:00:20.638] 471
[2023-11-08 15:00:20.686] 542
[2023-11-08 15:00:20.734] 440
[2023-11-08 15:00:20.783] 448
[2023-11-08 15:00:20.839] 309
[2023-11-08 15:00:20.889] 547
[2023-11-08 15:00:20.938] 568
[2023-11-08 15:00:20.987] 517
[2023-11-08 15:00:21.036] 540
[2023-11-08 15:00:21.086] 482
[2023-11-08 15:00:21.134] 378
[2023-11-08 15:00:21.183] 562
[2023-11-08 15:00:21.239] 569
[2023-11-08 15:00:21.288] 568
[2023-11-08 15:00:21.336] 561
[2023-11-08 15:00:21.385] 517
[2023-11-08 15:00:21.442] 555
[2023-11-08 15:00:21.490] 573
[2023-11-08 15:00:21.538] 555
[2023-11-08 15:00:21.587] 565
[2023-11-08 15:00:21.643] 543
[2023-11-08 15:00:21.692] 498
[2023-11-08 15:00:21.741] 554
[2023-11-08 15:00:21.790] 529
[2023-11-08 15:00:21.839] 515
[2023-11-08 15:00:21.888] 477
[2023-11-08 15:00:21.936] 536
[2023-11-08 15:00:21.985] 443
[2023-11-08 15:00:22.042] 429
[2023-11-08 15:00:22.090] 487
[2023-11-08 15:00:22.138] 349
[2023-11-08 15:00:22.187] 367
[2023-11-08 15:00:22.243] 419
[2023-11-08 15:00:22.294] 343
[2023-11-08 15:00:22.342] 423
[2023-11-08 15:00:22.392] 469
[2023-11-08 15:00:22.440] 532
[2023-11-08 15:00:22.490] 390
[2023-11-08 15:00:22.539] 310
[2023-11-08 15:00:22.589] 474
[2023-11-08 15:00:22.645] 377
[2023-11-08 15:00:22.695] 466
[2023-11-08 15:00:22.743] 451
[2023-11-08 15:00:22.791] 455
[2023-11-08 15:00:22.847] 406
[2023-11-08 15:00:22.895] 551
[2023-11-08 15:00:22.943] 441
[2023-11-08 15:00:22.992] 469
[2023-11-08 15:00:23.049] 415
[2023-11-08 15:00:23.097] 475
[2023-11-08 15:00:23.146] 428
[2023-11-08 15:00:23.194] 460
[2023-11-08 15:00:23.243] 389
[2023-11-08 15:00:23.292] 503
[2023-11-08 15:00:23.341] 492
[2023-11-08 15:00:23.389] 424
[2023-11-08 15:00:23.447] 370
[2023-11-08 15:00:23.495] 567
[2023-11-08 15:00:23.543] 497
[2023-11-08 15:00:23.592] 501
[2023-11-08 15:00:23.648] 595
[2023-11-08 15:00:23.698] 554
[2023-11-08 15:00:23.746] 575
[2023-11-08 15:00:23.794] 563
[2023-11-08 15:00:23.850] 560
[2023-11-08 15:00:23.899] 478
[2023-11-08 15:00:23.947] 580
[2023-11-08 15:00:23.996] 517
[2023-11-08 15:00:24.051] 548
[2023-11-08 15:00:24.100] 528
[2023-11-08 15:00:24.148] 488
[2023-11-08 15:00:24.196] 532
[2023-11-08 15:00:24.252] 555
[2023-11-08 15:00:24.301] 468
[2023-11-08 15:00:24.349] 537
[2023-11-08 15:00:24.397] 335
[2023-11-08 15:00:24.453] 310
[2023-11-08 15:00:24.502] 449
[2023-11-08 15:00:24.550] 281
[2023-11-08 15:00:24.599] 394
[2023-11-08 15:00:24.653] 345
[2023-11-08 15:00:24.697] 267
[2023-11-08 15:00:24.745] 361
[2023-11-08 15:00:24.797] 393
[2023-11-08 15:00:24.850] 568
[2023-11-08 15:00:24.899] 526
[2023-11-08 15:00:24.947] 450
[2023-11-08 15:00:24.995] 560
[2023-11-08 15:00:25.052] 364
[2023-11-08 15:00:25.100] 333
[2023-11-08 15:00:25.148] 526
[2023-11-08 15:00:25.197] 563
[2023-11-08 15:00:25.253] 592
[2023-11-08 15:00:25.301] 402
[2023-11-08 15:00:25.349] 512
[2023-11-08 15:00:25.398] 475
[2023-11-08 15:00:25.454] 468
[2023-11-08 15:00:25.502] 521
[2023-11-08 15:00:25.550] 552
[2023-11-08 15:00:25.599] 477
[2023-11-08 15:00:25.655] 538
[2023-11-08 15:00:25.703] 429
[2023-11-08 15:00:25.753] 418
[2023-11-08 15:00:25.801] 588
[2023-11-08 15:00:25.857] 555
[2023-11-08 15:00:25.905] 578
[2023-11-08 15:00:25.953] 563
[2023-11-08 15:00:26.001] 570
[2023-11-08 15:00:26.057] 563
[2023-11-08 15:00:26.106] 565
[2023-11-08 15:00:26.154] 556
[2023-11-08 15:00:26.202] 565
[2023-11-08 15:00:26.258] 558
[2023-11-08 15:00:26.307] 568
[2023-11-08 15:00:26.355] 554
[2023-11-08 15:00:26.404] 557
[2023-11-08 15:00:26.460] 517
[2023-11-08 15:00:26.509] 535
[2023-11-08 15:00:26.557] 391
[2023-11-08 15:00:26.605] 305
[2023-11-08 15:00:26.661] 393
[2023-11-08 15:00:26.710] 455
[2023-11-08 15:00:26.759] 481
[2023-11-08 15:00:26.808] 407
[2023-11-08 15:00:26.856] 551
[2023-11-08 15:00:26.905] 559
[2023-11-08 15:00:26.960] 457
[2023-11-08 15:00:27.009] 502
[2023-11-08 15:00:27.057] 533
[2023-11-08 15:00:27.106] 477
[2023-11-08 15:00:27.154] 462
[2023-11-08 15:00:27.203] 553
[2023-11-08 15:00:27.259] 530
[2023-11-08 15:00:27.308] 480
[2023-11-08 15:00:27.356] 587
[2023-11-08 15:00:27.405] 551
[2023-11-08 15:00:27.461] 543
[2023-11-08 15:00:27.510] 559
[2023-11-08 15:00:27.558] 572
[2023-11-08 15:00:27.607] 508
[2023-11-08 15:00:27.663] 482
[2023-11-08 15:00:27.712] 519
[2023-11-08 15:00:27.761] 564
[2023-11-08 15:00:27.809] 489
[2023-11-08 15:00:27.865] 389
[2023-11-08 15:00:27.914] 463
[2023-11-08 15:00:27.962] 395
[2023-11-08 15:00:28.011] 379
[2023-11-08 15:00:28.059] 580
[2023-11-08 15:00:28.108] 471
[2023-11-08 15:00:28.164] 545
[2023-11-08 15:00:28.213] 563
[2023-11-08 15:00:28.261] 568
[2023-11-08 15:00:28.310] 563
[2023-11-08 15:00:28.357] 561
[2023-11-08 15:00:28.414] 568
[2023-11-08 15:00:28.462] 580
[2023-11-08 15:00:28.511] 538
[2023-11-08 15:00:28.559] 574
[2023-11-08 15:00:28.608] 532
[2023-11-08 15:00:28.664] 568
[2023-11-08 15:00:28.714] 550
[2023-11-08 15:00:28.762] 546
[2023-11-08 15:00:28.811] 562
[2023-11-08 15:00:28.867] 527
[2023-11-08 15:00:28.915] 539
[2023-11-08 15:00:28.965] 520
[2023-11-08 15:00:29.014] 390
[2023-11-08 15:00:29.062] 416
[2023-11-08 15:00:29.119] 524
[2023-11-08 15:00:29.167] 494
[2023-11-08 15:00:29.215] 384
[2023-11-08 15:00:29.263] 494
[2023-11-08 15:00:29.313] 504
[2023-11-08 15:00:29.369] 506
[2023-11-08 15:00:29.417] 547
[2023-11-08 15:00:29.465] 547
[2023-11-08 15:00:29.514] 557
[2023-11-08 15:00:29.562] 553
[2023-11-08 15:00:29.618] 466
[2023-11-08 15:00:29.666] 522
[2023-11-08 15:00:29.714] 372
[2023-11-08 15:00:29.763] 524
[2023-11-08 15:00:29.819] 269
[2023-11-08 15:00:29.867] 485
[2023-11-08 15:00:29.916] 476
[2023-11-08 15:00:29.964] 496
[2023-11-08 15:00:30.012] 574
[2023-11-08 15:00:30.069] 410
[2023-11-08 15:00:30.117] 497
[2023-11-08 15:00:30.165] 500
[2023-11-08 15:00:30.221] 376
[2023-11-08 15:00:30.269] 419
[2023-11-08 15:00:30.318] 516
[2023-11-08 15:00:30.366] 553
[2023-11-08 15:00:30.414] 309
[2023-11-08 15:00:30.472] 527
[2023-11-08 15:00:30.521] 573
[2023-11-08 15:00:30.569] 562
[2023-11-08 15:00:30.617] 537
[2023-11-08 15:00:30.673] 543
[2023-11-08 15:00:30.721] 584
[2023-11-08 15:00:30.769] 486
[2023-11-08 15:00:30.818] 553
[2023-11-08 15:00:30.874] 467
[2023-11-08 15:00:30.922] 564
[2023-11-08 15:00:30.970] 486
[2023-11-08 15:00:31.018] 545
[2023-11-08 15:00:31.074] 550
[2023-11-08 15:00:31.123] 561
[2023-11-08 15:00:31.172] 496
[2023-11-08 15:00:31.221] 527
[2023-11-08 15:00:31.277] 375
[2023-11-08 15:00:31.326] 436
[2023-11-08 15:00:31.373] 541
[2023-11-08 15:00:31.422] 421
[2023-11-08 15:00:31.478] 527
[2023-11-08 15:00:31.527] 553
[2023-11-08 15:00:31.575] 435
[2023-11-08 15:00:31.624] 491
[2023-11-08 15:00:31.672] 563
[2023-11-08 15:00:31.727] 556
[2023-11-08 15:00:31.775] 476
[2023-11-08 15:00:31.824] 564
[2023-11-08 15:00:31.872] 413
[2023-11-08 15:00:31.928] 379
[2023-11-08 15:00:31.976] 567
[2023-11-08 15:00:32.024] 579
[2023-11-08 15:00:32.080] 460
[2023-11-08 15:00:32.129] 543
[2023-11-08 15:00:32.177] 527
[2023-11-08 15:00:32.226] 402
[2023-11-08 15:00:32.274] 391
[2023-11-08 15:00:32.323] 381
[2023-11-08 15:00:32.379] 400
[2023-11-08 15:00:32.428] 576
[2023-11-08 15:00:32.476] 458
[2023-11-08 15:00:32.524] 414
[2023-11-08 15:00:32.572] 395
[2023-11-08 15:00:32.622] 511
[2023-11-08 15:00:32.678] 408
[2023-11-08 15:00:32.727] 423
[2023-11-08 15:00:32.775] 525
[2023-11-08 15:00:32.825] 556
[2023-11-08 15:00:32.881] 571
[2023-11-08 15:00:32.930] 535
[2023-11-08 15:00:32.978] 540
[2023-11-08 15:00:33.027] 501
[2023-11-08 15:00:33.083] 571
[2023-11-08 15:00:33.131] 565
[2023-11-08 15:00:33.179] 555
[2023-11-08 15:00:33.228] 523
[2023-11-08 15:00:33.284] 582
[2023-11-08 15:00:33.333] 543
[2023-11-08 15:00:33.381] 407
[2023-11-08 15:00:33.429] 449
[2023-11-08 15:00:33.484] 413
[2023-11-08 15:00:33.527] 364
[2023-11-08 15:00:33.583] 374
[2023-11-08 15:00:33.632] 398
[2023-11-08 15:00:33.680] 462
[2023-11-08 15:00:33.728] 465
[2023-11-08 15:00:33.784] 358
[2023-11-08 15:00:33.833] 326
[2023-11-08 15:00:33.881] 512
[2023-11-08 15:00:33.930] 367
[2023-11-08 15:00:33.978] 572
[2023-11-08 15:00:34.035] 551
[2023-11-08 15:00:34.083] 568
[2023-11-08 15:00:34.131] 560
[2023-11-08 15:00:34.179] 474
[2023-11-08 15:00:34.236] 569
[2023-11-08 15:00:34.284] 499
[2023-11-08 15:00:34.333] 490
[2023-11-08 15:00:34.381] 428
[2023-11-08 15:00:34.429] 449
[2023-11-08 15:00:34.486] 536
[2023-11-08 15:00:34.535] 572
[2023-11-08 15:00:34.583] 465
[2023-11-08 15:00:34.633] 532
[2023-11-08 15:00:34.689] 570
[2023-11-08 15:00:34.737] 570
[2023-11-08 15:00:34.785] 493
[2023-11-08 15:00:34.834] 516
[2023-11-08 15:00:34.890] 477
[2023-11-08 15:00:34.938] 427
[2023-11-08 15:00:34.986] 531
[2023-11-08 15:00:35.035] 563
[2023-11-08 15:00:35.091] 548
[2023-11-08 15:00:35.138] 561
[2023-11-08 15:00:35.186] 556
[2023-11-08 15:00:35.235] 578
[2023-11-08 15:00:35.291] 548
[2023-11-08 15:00:35.339] 488
[2023-11-08 15:00:35.387] 514
[2023-11-08 15:00:35.435] 515
[2023-11-08 15:00:35.491] 544
[2023-11-08 15:00:35.539] 522
[2023-11-08 15:00:35.587] 550
[2023-11-08 15:00:35.643] 538
[2023-11-08 15:00:35.692] 536
[2023-11-08 15:00:35.739] 530
[2023-11-08 15:00:35.787] 495
[2023-11-08 15:00:35.844] 540
[2023-11-08 15:00:35.892] 504
[2023-11-08 15:00:35.940] 505
[2023-11-08 15:00:35.988] 283
[2023-11-08 15:00:36.044] 572
[2023-11-08 15:00:36.092] 471
[2023-11-08 15:00:36.141] 551
[2023-11-08 15:00:36.188] 453
[2023-11-08 15:00:36.245] 544
[2023-11-08 15:00:36.294] 363
[2023-11-08 15:00:36.342] 568
[2023-11-08 15:00:36.390] 372
[2023-11-08 15:00:36.446] 563
[2023-11-08 15:00:36.494] 410
[2023-11-08 15:00:36.543] 566
[2023-11-08 15:00:36.591] 396
[2023-11-08 15:00:36.639] 552
[2023-11-08 15:00:36.695] 413
[2023-11-08 15:00:36.743] 546
[2023-11-08 15:00:36.791] 425
[2023-11-08 15:00:36.847] 536
[2023-11-08 15:00:36.895] 434
[2023-11-08 15:00:36.944] 524
[2023-11-08 15:00:36.992] 456
[2023-11-08 15:00:37.048] 520
[2023-11-08 15:00:37.096] 460
[2023-11-08 15:00:37.144] 508
[2023-11-08 15:00:37.192] 473
[2023-11-08 15:00:37.249] 488
[2023-11-08 15:00:37.298] 493
[2023-11-08 15:00:37.346] 478
